 W(MeV)     Re(0)   Im(0)   Re(+)    Im(+)   Re(-)    Im(-) wlab(MeV) wcm(MeV)
 1080.0     .776    .015    3.588    .039    2.003    .056    685.3  -330.5
 1085.0     .774    .038    3.512    .097    2.025    .137    691.1  -324.0
 1090.0     .772    .052    3.439    .134    2.046    .185    696.9  -317.5
 1095.0     .770    .062    3.368    .162    2.065    .222    702.7  -311.1
 1100.0     .769    .068    3.302    .176    2.084    .241    708.6  -304.7
 1105.0     .769    .074    3.237    .191    2.101    .261    714.4  -298.3
 1110.0     .768    .080    3.173    .207    2.117    .281    720.3  -292.0
 1115.0     .768    .085    3.112    .220    2.131    .297    726.3  -285.7
 1120.0     .768    .089    3.054    .232    2.145    .310    732.2  -279.4
 1125.0     .769    .093    2.997    .243    2.157    .322    738.2  -273.2
 1130.0     .769    .097    2.941    .253    2.169    .333    744.2  -267.0
 1135.0     .770    .101    2.888    .263    2.180    .342    750.2  -260.9
 1140.0     .772    .104    2.836    .273    2.190    .350    756.3  -254.7
 1145.0     .773    .107    2.786    .282    2.199    .357    762.4  -248.6
 1150.0     .775    .110    2.738    .291    2.208    .363    768.5  -242.5
 1155.0     .777    .113    2.691    .300    2.216    .369    774.7  -236.5
 1160.0     .779    .116    2.646    .309    2.223    .373    780.8  -230.5
 1165.0     .782    .118    2.602    .318    2.230    .377    787.0  -224.5
 1170.0     .784    .121    2.559    .326    2.236    .381    793.2  -218.6
 1175.0     .787    .124    2.518    .335    2.242    .384    799.5  -212.7
 1180.0     .790    .126    2.478    .343    2.248    .386    805.8  -206.8
 1185.0     .793    .128    2.440    .352    2.253    .388    812.1  -200.9
 1190.0     .797    .131    2.402    .360    2.257    .389    818.4  -195.1
 1195.0     .801    .133    2.366    .368    2.262    .390    824.7  -189.3
 1200.0     .805    .136    2.331    .377    2.266    .391    831.1  -183.5
 1205.0     .809    .138    2.297    .385    2.270    .391    837.5  -177.7
 1210.0     .813    .140    2.265    .394    2.274    .392    844.0  -172.0
 1215.0     .817    .143    2.233    .402    2.277    .392    850.4  -166.3
 1220.0     .821    .145    2.203    .411    2.281    .392    856.9  -160.6
 1225.0     .826    .147    2.174    .420    2.284    .391    863.4  -155.0
 1230.0     .831    .150    2.146    .428    2.287    .391    870.0  -149.4
 1235.0     .836    .152    2.119    .437    2.291    .391    876.5  -143.8
 1240.0     .841    .154    2.093    .446    2.294    .390    883.1  -138.2
 1245.0     .847    .157    2.068    .455    2.297    .390    889.8  -132.7
 1250.0     .852    .159    2.044    .464    2.300    .389    896.4  -127.1
 1255.0     .858    .162    2.022    .473    2.303    .389    903.1  -121.6
 1260.0     .864    .164    2.000    .483    2.307    .388    909.8  -116.2
 1265.0     .870    .167    1.980    .492    2.310    .388    916.5  -110.7
 1270.0     .876    .170    1.960    .502    2.314    .387    923.3  -105.3
 1275.0     .883    .173    1.942    .512    2.318    .387    930.0   -99.9
 1280.0     .889    .176    1.924    .522    2.322    .387    936.9   -94.5
 1285.0     .896    .179    1.908    .532    2.326    .388    943.7   -89.2
 1290.0     .904    .182    1.893    .542    2.331    .388    950.5   -83.8
 1295.0     .911    .185    1.879    .553    2.336    .388    957.4   -78.5
 1300.0     .918    .189    1.866    .568    2.341    .393    964.3   -73.2
 1305.0     .926    .192    1.854    .579    2.347    .394    971.3   -67.9
 1310.0     .934    .196    1.844    .591    2.353    .396    978.3   -62.7
 1315.0     .942    .200    1.835    .602    2.360    .398    985.3   -57.5
 1320.0     .951    .204    1.827    .615    2.368    .401    992.3   -52.3
 1325.0     .959    .208    1.820    .628    2.375    .404    999.3   -47.1
 1330.0     .968    .213    1.815    .641    2.384    .408   1006.4   -41.9
 1335.0     .978    .217    1.811    .655    2.394    .412   1013.5   -36.8
 1340.0     .987    .222    1.809    .669    2.404    .417   1020.6   -31.6
 1345.0     .997    .227    1.808    .684    2.415    .423   1027.8   -26.5
 1350.0    1.007    .233    1.809    .699    2.427    .429   1035.0   -21.4
 1355.0    1.018    .239    1.811    .715    2.441    .437   1042.2   -16.4
 1360.0    1.029    .245    1.816    .732    2.455    .445   1049.4   -11.3
 1365.0    1.040    .251    1.822    .750    2.471    .454   1056.7    -6.3
 1370.0    1.052    .258    1.830    .769    2.488    .465   1063.9    -1.3
 1375.0    1.063    .266    1.840    .788    2.507    .477   1071.3     3.7
 1380.0    1.076    .274    1.852    .809    2.527    .490   1078.6     8.7
 1385.0    1.089    .282    1.867    .831    2.549    .505   1086.0    13.7
 1390.0    1.102    .291    1.884    .855    2.573    .521   1093.4    18.6
 1395.0    1.116    .301    1.903    .881    2.599    .540   1100.8    23.5
 1400.0    1.130    .312    1.926    .908    2.627    .560   1108.2    28.4
 1405.0    1.145    .323    1.952    .938    2.659    .584   1115.7    33.3
 1410.0    1.161    .335    1.981    .970    2.693    .610   1123.2    38.2
 1415.0    1.177    .349    2.014   1.005    2.730    .639   1130.7    43.1
 1420.0    1.194    .363    2.050   1.043    2.770    .672   1138.3    47.9
 1425.0    1.211    .379    2.091   1.085    2.814    .710   1145.9    52.7
 1430.0    1.230    .396    2.137   1.132    2.863    .752   1153.5    57.5
 1435.0    1.249    .416    2.188   1.184    2.916    .800   1161.1    62.3
 1440.0    1.269    .437    2.244   1.243    2.974    .855   1168.8    67.1
 1445.0    1.290    .461    2.306   1.309    3.037    .919   1176.5    71.9
 1450.0    1.312    .488    2.375   1.385    3.107    .992   1184.2    76.6
 1455.0    1.334    .518    2.451   1.471    3.184   1.077   1191.9    81.3
 1460.0    1.357    .552    2.534   1.572    3.266   1.176   1199.7    86.0
 1465.0    1.380    .592    2.625   1.689    3.356   1.293   1207.5    90.7
 1470.0    1.405    .637    2.724   1.828    3.454   1.432   1215.3    95.4
 1475.0    1.430    .691    2.834   1.993    3.561   1.599   1223.1   100.1
 1480.0    1.444    .754    2.937   2.193    3.662   1.800   1231.0   104.7
 1485.0    1.439    .822    3.023   2.426    3.745   2.037   1238.9   109.4
 1490.0    1.351    .915    2.764   2.821    3.481   2.437   1246.8   114.0
 1495.0    1.280    .973    2.525   3.127    3.238   2.749   1254.8   118.6
 1500.0    1.219   1.016    2.295   3.394    3.003   3.023   1262.8   123.2
 1505.0    1.154   1.054    2.029   3.638    2.731   3.276   1270.8   127.8
 1510.0    1.083   1.085    1.721   3.846    2.416   3.495   1278.8   132.4
 1515.0    1.009   1.102    1.376   3.999    2.062   3.663   1286.9   136.9
 1520.0     .936   1.105    1.005   4.086    1.683   3.766   1295.0   141.5
 1525.0     .865   1.093     .627   4.098    1.294   3.798   1303.1   146.0
 1530.0     .801   1.069     .260   4.038     .917   3.762   1311.2   150.5
 1535.0     .748   1.035    -.074   3.912     .571   3.664   1319.4   155.0
 1540.0     .708    .993    -.364   3.732     .268   3.518   1327.6   159.5
 1545.0     .681    .949    -.602   3.514     .016   3.342   1335.8   164.0
 1550.0     .667    .904    -.788   3.274    -.185   3.150   1344.0   168.4
 1555.0     .664    .863    -.925   3.023    -.336   2.958   1352.3   172.9
 1560.0     .670    .828   -1.020   2.771    -.444   2.774   1360.6   177.3
 1565.0     .683    .799   -1.081   2.525    -.515   2.606   1368.9   181.7
 1570.0     .703    .777   -1.115   2.290    -.557   2.457   1377.3   186.2
 1575.0     .725    .763   -1.129   2.070    -.575   2.327   1385.7   190.6    
