 W(MeV)     Re(0)   Im(0)   Re(+)    Im(+)   Re(-)    Im(-) wlab(MeV) wcm(MeV)
 1080.0   -1.740   -.035   -1.078    .052    2.497    .013    685.3  -330.5
 1085.0   -1.700   -.083   -1.095    .127    2.493    .032    691.1  -324.0
 1090.0   -1.661   -.111   -1.113    .173    2.489    .043    696.9  -317.5
 1095.0   -1.624   -.131   -1.131    .215    2.485    .048    702.7  -311.1
 1100.0   -1.590   -.140   -1.150    .242    2.482    .047    708.6  -304.7
 1105.0   -1.556   -.149   -1.169    .271    2.480    .046    714.4  -298.3
 1110.0   -1.523   -.158   -1.189    .301    2.477    .045    720.3  -292.0
 1115.0   -1.491   -.165   -1.209    .330    2.474    .041    726.3  -285.7
 1120.0   -1.461   -.170   -1.229    .357    2.471    .037    732.2  -279.4
 1125.0   -1.432   -.174   -1.249    .385    2.469    .032    738.2  -273.2
 1130.0   -1.403   -.177   -1.270    .412    2.466    .026    744.2  -267.0
 1135.0   -1.376   -.180   -1.290    .438    2.463    .019    750.2  -260.9
 1140.0   -1.349   -.182   -1.310    .463    2.460    .012    756.3  -254.7
 1145.0   -1.323   -.184   -1.330    .489    2.457    .004    762.4  -248.6
 1150.0   -1.298   -.185   -1.350    .514    2.454   -.004    768.5  -242.5
 1155.0   -1.274   -.186   -1.370    .539    2.450   -.012    774.7  -236.5
 1160.0   -1.251   -.186   -1.390    .564    2.446   -.021    780.8  -230.5
 1165.0   -1.228   -.187   -1.409    .588    2.443   -.030    787.0  -224.5
 1170.0   -1.206   -.187   -1.428    .612    2.438   -.039    793.2  -218.6
 1175.0   -1.184   -.186   -1.447    .635    2.434   -.048    799.5  -212.7
 1180.0   -1.164   -.186   -1.465    .659    2.429   -.058    805.8  -206.8
 1185.0   -1.143   -.186   -1.483    .683    2.424   -.068    812.1  -200.9
 1190.0   -1.123   -.185   -1.500    .706    2.418   -.079    818.4  -195.1
 1195.0   -1.104   -.184   -1.517    .729    2.412   -.089    824.7  -189.3
 1200.0   -1.085   -.183   -1.534    .751    2.406   -.099    831.1  -183.5
 1205.0   -1.067   -.182   -1.550    .774    2.400   -.110    837.5  -177.7
 1210.0   -1.049   -.181   -1.565    .797    2.393   -.120    844.0  -172.0
 1215.0   -1.032   -.180   -1.581    .819    2.386   -.131    850.4  -166.3
 1220.0   -1.015   -.179   -1.595    .841    2.378   -.141    856.9  -160.6
 1225.0    -.998   -.178   -1.609    .862    2.370   -.152    863.4  -155.0
 1230.0    -.982   -.177   -1.622    .884    2.361   -.163    870.0  -149.4
 1235.0    -.966   -.176   -1.636    .905    2.353   -.173    876.5  -143.8
 1240.0    -.951   -.175   -1.649    .926    2.343   -.184    883.1  -138.2
 1245.0    -.936   -.173   -1.661    .946    2.334   -.195    889.8  -132.7
 1250.0    -.921   -.172   -1.672    .966    2.323   -.205    896.4  -127.1
 1255.0    -.907   -.171   -1.684    .987    2.313   -.216    903.1  -121.6
 1260.0    -.893   -.170   -1.695   1.006    2.302   -.226    909.8  -116.2
 1265.0    -.880   -.169   -1.705   1.026    2.291   -.237    916.5  -110.7
 1270.0    -.867   -.168   -1.715   1.044    2.279   -.247    923.3  -105.3
 1275.0    -.854   -.167   -1.725   1.063    2.267   -.257    930.0   -99.9
 1280.0    -.841   -.166   -1.735   1.081    2.254   -.267    936.9   -94.5
 1285.0    -.829   -.165   -1.744   1.099    2.241   -.277    943.7   -89.2
 1290.0    -.817   -.164   -1.753   1.117    2.227   -.287    950.5   -83.8
 1295.0    -.805   -.163   -1.762   1.134    2.213   -.297    957.4   -78.5
 1300.0    -.794   -.163   -1.770   1.150    2.199   -.308    964.3   -73.2
 1305.0    -.783   -.162   -1.778   1.166    2.184   -.318    971.3   -67.9
 1310.0    -.772   -.162   -1.786   1.182    2.169   -.327    978.3   -62.7
 1315.0    -.761   -.161   -1.794   1.197    2.153   -.337    985.3   -57.5
 1320.0    -.751   -.161   -1.802   1.212    2.137   -.346    992.3   -52.3
 1325.0    -.741   -.161   -1.810   1.227    2.120   -.355    999.3   -47.1
 1330.0    -.732   -.160   -1.818   1.241    2.103   -.364   1006.4   -41.9
 1335.0    -.722   -.160   -1.826   1.255    2.085   -.373   1013.5   -36.8
 1340.0    -.713   -.160   -1.833   1.268    2.066   -.381   1020.6   -31.6
 1345.0    -.705   -.161   -1.842   1.280    2.047   -.390   1027.8   -26.5
 1350.0    -.697   -.161   -1.850   1.292    2.028   -.398   1035.0   -21.4
 1355.0    -.689   -.161   -1.858   1.303    2.008   -.407   1042.2   -16.4
 1360.0    -.681   -.162   -1.866   1.314    1.987   -.415   1049.4   -11.3
 1365.0    -.674   -.163   -1.875   1.325    1.965   -.423   1056.7    -6.3
 1370.0    -.667   -.164   -1.885   1.335    1.943   -.431   1063.9    -1.3
 1375.0    -.660   -.165   -1.894   1.344    1.920   -.439   1071.3     3.7
 1380.0    -.654   -.167   -1.905   1.352    1.896   -.447   1078.6     8.7
 1385.0    -.648   -.168   -1.916   1.359    1.872   -.455   1086.0    13.7
 1390.0    -.643   -.170   -1.927   1.365    1.846   -.463   1093.4    18.6
 1395.0    -.637   -.173   -1.940   1.372    1.819   -.472   1100.8    23.5
 1400.0    -.633   -.176   -1.953   1.377    1.792   -.480   1108.2    28.4
 1405.0    -.629   -.179   -1.968   1.381    1.763   -.488   1115.7    33.3
 1410.0    -.625   -.182   -1.984   1.383    1.733   -.497   1123.2    38.2
 1415.0    -.622   -.186   -2.001   1.385    1.702   -.506   1130.7    43.1
 1420.0    -.620   -.191   -2.020   1.386    1.669   -.515   1138.3    47.9
 1425.0    -.618   -.196   -2.040   1.385    1.634   -.525   1145.9    52.7
 1430.0    -.617   -.202   -2.062   1.382    1.597   -.536   1153.5    57.5
 1435.0    -.616   -.209   -2.087   1.377    1.559   -.547   1161.1    62.3
 1440.0    -.617   -.217   -2.115   1.369    1.518   -.560   1168.8    67.1
 1445.0    -.618   -.226   -2.145   1.359    1.475   -.574   1176.5    71.9
 1450.0    -.620   -.236   -2.178   1.346    1.428   -.590   1184.2    76.6
 1455.0    -.623   -.249   -2.215   1.330    1.379   -.608   1191.9    81.3
 1460.0    -.626   -.263   -2.256   1.309    1.325   -.629   1199.7    86.0
 1465.0    -.630   -.280   -2.303   1.283    1.266   -.654   1207.5    90.7
 1470.0    -.636   -.301   -2.354   1.250    1.204   -.683   1215.3    95.4
 1475.0    -.643   -.326   -2.410   1.209    1.138   -.719   1223.1   100.1
 1480.0    -.646   -.355   -2.480   1.158    1.057   -.762   1231.0   104.7
 1485.0    -.644   -.389   -2.572   1.088     .955   -.821   1238.9   109.4
 1490.0    -.591   -.442   -2.559    .944     .959   -.953   1246.8   114.0
 1495.0    -.546   -.479   -2.532    .800     .978  -1.081   1254.8   118.6
 1500.0    -.505   -.510   -2.492    .656    1.010  -1.205   1262.8   123.2
 1505.0    -.459   -.538   -2.434    .519    1.060  -1.319   1270.8   127.8
 1510.0    -.409   -.562   -2.356    .390    1.131  -1.419   1278.8   132.4
 1515.0    -.354   -.578   -2.257    .273    1.222  -1.501   1286.9   136.9
 1520.0    -.297   -.586   -2.142    .174    1.330  -1.560   1295.0   141.5
 1525.0    -.240   -.584   -2.016    .096    1.448  -1.590   1303.1   146.0
 1530.0    -.186   -.573   -1.887    .041    1.567  -1.590   1311.2   150.5
 1535.0    -.136   -.554   -1.762    .005    1.680  -1.561   1319.4   155.0
 1540.0    -.092   -.529   -1.647   -.016    1.780  -1.506   1327.6   159.5
 1545.0    -.056   -.501   -1.543   -.029    1.864  -1.431   1335.8   164.0
 1550.0    -.027   -.470   -1.452   -.040    1.928  -1.341   1344.0   168.4
 1555.0    -.005   -.439   -1.373   -.053    1.974  -1.241   1352.3   172.9
 1560.0     .011   -.410   -1.304   -.072    2.002  -1.134   1360.6   177.3
 1565.0     .022   -.383   -1.241   -.098    2.013  -1.024   1368.9   181.7
 1570.0     .030   -.358   -1.182   -.131    2.008   -.914   1377.3   186.2
 1575.0     .034   -.336   -1.127   -.166    1.991   -.808   1385.7   190.6
   
